Data from Ink_Intensity_USB4F045381__66__00066.txt Node

Date: Mon Jul 17 10:35:14 EDT 2023
User: mmckonesweet
Spectrometer: USB4F04538
Trigger mode: 4
Integration Time (sec): 9.000000E-1
Scans to average: 1
Electric dark correction enabled: true
Nonlinearity correction enabled: false
Boxcar width: 0
XAxis mode: Wavelengths
Number of Pixels in Spectrum: 3648
>>>>>Begin Spectral Data<<<<<
345.52	-1034.05
345.736	-1034.05
345.952	-1034.05
346.168	-1038.15
346.384	-999.24
346.6	-114.52
346.816	-198.48
347.032	-208.72
347.248	264.36
347.464	-214.87
347.68	-112.47
347.896	116.9
348.112	393.38
348.328	-81.75
348.544	-104.28
348.76	-5.97
348.975	266.41
349.191	-290.64
349.407	-128.85
349.623	-10.07
349.839	-18.26
350.055	-124.76
350.27	-12.12
350.486	141.48
350.702	346.28
350.918	155.82
351.133	-233.3
351.349	182.44
351.565	399.52
351.781	-243.54
351.996	26.79
352.212	329.89
352.428	-130.9
352.644	-198.48
352.859	-210.77
353.075	303.27
353.291	141.48
353.506	-96.08
353.722	-212.82
353.938	-98.13
354.153	420
354.369	86.19
354.584	-165.71
354.8	272.55
355.016	-384.85
355.231	-253.78
355.447	-112.47
355.662	51.37
355.878	759.97
356.093	-341.84
356.309	-149.33
356.524	-194.39
356.74	276.65
356.955	-274.26
357.171	-26.45
357.386	129.19
357.602	-196.43
357.817	-141.14
358.033	-198.48
358.248	350.37
358.464	182.44
358.679	-255.83
358.895	-317.26
359.11	-16.21
359.325	325.8
359.541	39.08
359.756	2.22
359.972	-374.61
360.187	194.73
360.402	-216.91
360.618	-178
360.833	862.37
361.048	147.62
361.264	-180.05
361.479	-59.22
361.694	-69.46
361.909	245.93
362.125	-206.67
362.34	-98.13
362.555	245.93
362.77	-34.64
362.986	-255.83
363.201	-169.81
363.416	123.05
363.631	-14.17
363.847	-173.91
364.062	-192.34
364.277	139.43
364.492	65.71
364.707	-153.43
364.922	-397.14
365.138	137.38
365.353	319.65
365.568	-241.49
365.783	-218.96
365.998	77.99
366.213	465.06
366.428	-272.21
366.643	24.75
366.858	362.66
367.073	209.06
367.288	-132.95
367.503	-335.7
367.718	153.77
367.933	297.13
368.148	-360.27
368.363	-137.04
368.578	-32.6
368.793	460.96
369.008	-214.87
369.223	-153.43
369.438	155.82
369.653	407.72
369.868	-233.3
370.083	-249.68
370.298	137.38
370.513	319.65
370.728	0.17
370.943	-233.3
371.157	-163.67
371.372	508.07
371.587	-257.87
371.802	-309.07
372.017	30.89
372.232	358.57
372.446	-42.84
372.661	-311.12
372.876	204.97
373.091	110.76
373.306	-100.18
373.52	-286.54
373.735	-251.73
373.95	346.28
374.165	-89.94
374.379	-120.66
374.594	-188.24
374.809	86.19
375.023	-22.36
375.238	-286.54
375.453	301.22
375.667	-286.54
375.882	-239.44
376.097	-216.91
376.311	-14.17
376.526	-18.26
376.741	-239.44
376.955	73.9
377.17	516.26
377.384	493.73
377.599	-137.04
377.813	-278.35
378.028	518.31
378.242	174.25
378.457	-163.67
378.672	-327.5
378.886	164.01
379.101	28.84
379.315	-393.04
379.53	-247.63
379.744	73.9
379.958	139.43
380.173	-259.92
380.387	-235.35
380.602	133.29
380.816	-65.36
381.031	-167.76
381.245	-151.38
381.459	157.86
381.674	2562.18
381.888	-223.06
382.103	22.7
382.317	-157.52
382.531	366.76
382.746	-55.12
382.96	-159.57
383.174	-116.56
383.388	370.85
383.603	16.55
383.817	-235.35
384.031	290.98
384.246	473.25
384.46	-77.65
384.674	235.69
384.888	37.03
385.103	-12.12
385.317	-233.3
385.531	-96.08
385.745	264.36
385.959	252.07
386.174	-169.81
386.388	-272.21
386.602	14.51
386.816	-161.62
387.03	-159.57
387.244	-132.95
387.458	-36.69
387.672	311.46
387.887	-235.35
388.101	-294.74
388.315	331.94
388.529	123.05
388.743	-255.83
388.957	-190.29
389.171	284.84
389.385	-145.24
389.599	-106.32
389.813	-22.36
390.027	174.25
390.241	620.71
390.455	-102.23
390.669	-132.95
390.883	-104.28
391.097	237.74
391.311	-18.26
391.525	-118.61
391.738	139.43
391.952	252.07
392.166	-59.22
392.38	-235.35
392.594	176.3
392.808	282.79
393.022	-81.75
393.236	-130.9
393.449	145.58
393.663	121
393.877	-335.7
394.091	-126.8
394.305	12.46
394.518	-91.99
394.732	-300.88
394.946	-137.04
395.16	417.96
395.373	18.6
395.587	-216.91
395.801	-165.71
396.015	321.7
396.228	231.59
396.442	-311.12
396.656	-368.46
396.869	333.99
397.083	489.64
397.297	-83.8
397.51	-208.72
397.724	333.99
397.938	145.58
398.151	-274.26
398.365	-253.78
398.578	137.38
398.792	317.61
399.005	-120.66
399.219	-157.52
399.433	84.14
399.646	186.54
399.86	-14.17
400.073	-57.17
400.287	237.74
400.5	-12.12
400.714	-75.6
400.927	-63.32
401.141	221.35
401.354	1114.27
401.567	125.1
401.781	-227.15
401.994	278.69
402.208	608.42
402.421	-120.66
402.635	-112.47
402.848	-1.88
403.061	366.76
403.275	-59.22
403.488	-227.15
403.701	491.68
403.915	270.5
404.128	22.7
404.341	-132.95
404.555	188.58
404.768	4.27
404.981	-81.75
405.195	-202.58
405.408	454.82
405.621	198.82
405.834	80.04
406.048	-114.52
406.261	333.99
406.474	532.64
406.687	-261.97
406.9	-38.74
407.114	28.84
407.327	73.9
407.54	-352.08
407.753	-284.5
407.966	-175.95
408.179	141.48
408.392	-241.49
408.605	-358.22
408.819	147.62
409.032	147.62
409.245	-261.97
409.458	14.51
409.671	227.5
409.884	192.68
410.097	-304.98
410.31	-8.02
410.523	151.72
410.736	-5.97
410.949	-96.08
411.162	-151.38
411.375	422.05
411.588	327.85
411.801	51.37
412.014	-85.84
412.227	80.04
412.44	-53.08
412.653	-173.91
412.865	-42.84
413.078	278.69
413.291	194.73
413.504	-175.95
413.717	-194.39
413.93	235.69
414.143	-91.99
414.356	-132.95
414.568	-280.4
414.781	219.3
414.994	184.49
415.207	-61.27
415.42	-106.32
415.632	301.22
415.845	481.44
416.058	-280.4
416.271	-210.77
416.483	86.19
416.696	460.96
416.909	-165.71
417.121	-167.76
417.334	233.64
417.547	573.6
417.759	-243.54
417.972	-296.78
418.185	-38.74
418.397	305.32
418.61	-122.71
418.823	-118.61
419.035	424.1
419.248	32.94
419.46	-96.08
419.673	-71.51
419.885	223.4
420.098	-30.55
420.311	-200.53
420.523	-325.46
420.736	137.38
420.948	80.04
421.161	-104.28
421.373	-395.09
421.586	116.9
421.798	-100.18
422.01	-266.07
422.223	-118.61
422.435	-22.36
422.648	166.06
422.86	-67.41
423.073	-159.57
423.285	329.89
423.497	-227.15
423.71	-165.71
423.922	-210.77
424.134	186.54
424.347	413.86
424.559	39.08
424.771	-1.88
424.984	-89.94
425.196	182.44
425.408	-327.5
425.621	-233.3
425.833	217.26
426.045	309.41
426.257	-298.83
426.47	-235.35
426.682	86.19
426.894	233.64
427.106	-204.63
427.318	-128.85
427.531	-100.18
427.743	229.54
427.955	-259.92
428.167	211.11
428.379	219.3
428.591	22.7
428.804	-73.56
429.016	-241.49
429.228	-91.99
429.44	159.91
429.652	-22.36
429.864	-352.08
430.076	-22.36
430.288	-42.84
430.5	-155.47
430.712	-165.71
430.924	272.55
431.136	57.51
431.348	-378.7
431.56	-145.24
431.772	18.6
431.984	-14.17
432.196	-235.35
432.408	-196.43
432.62	-83.8
432.832	143.53
433.044	41.13
433.256	-104.28
433.468	114.86
433.679	-268.11
433.891	-198.48
434.103	49.32
434.315	381.09
434.527	198.82
434.739	-118.61
434.95	-235.35
435.162	235.69
435.374	-85.84
435.586	-139.09
435.798	-102.23
436.009	-171.86
436.221	-10.07
436.433	-124.76
436.645	-73.56
436.856	-12.12
437.068	276.65
437.28	-235.35
437.491	127.14
437.703	161.96
437.915	108.71
438.126	-143.19
438.338	77.99
438.55	88.23
438.761	127.14
438.973	-91.99
439.184	-212.82
439.396	53.42
439.608	266.41
439.819	-218.96
440.031	-149.33
440.242	159.91
440.454	186.54
440.665	-87.89
440.877	-161.62
441.088	135.34
441.3	-51.03
441.511	-268.11
441.723	-163.67
441.934	153.77
442.146	104.62
442.357	-8.02
442.569	-22.36
442.78	34.99
442.991	379.04
443.203	51.37
443.414	-284.5
443.626	348.33
443.837	-218.96
444.048	-347.98
444.26	-304.98
444.471	159.91
444.682	262.31
444.894	-370.51
445.105	-341.84
445.316	231.59
445.528	118.95
445.739	-202.58
445.95	-159.57
446.161	77.99
446.373	305.32
446.584	-161.62
446.795	-175.95
447.006	231.59
447.217	426.15
447.429	-423.76
447.64	-231.25
447.851	252.07
448.062	22.7
448.273	-280.4
448.484	-296.78
448.695	166.06
448.907	-22.36
449.118	-120.66
449.329	34.99
449.54	-18.26
449.751	-218.96
449.962	-192.34
450.173	-194.39
450.384	321.7
450.595	286.89
450.806	-165.71
451.017	-196.43
451.228	354.47
451.439	202.92
451.65	-186.19
451.861	-448.33
452.072	-198.48
452.283	82.09
452.494	-3.93
452.705	-311.12
452.915	405.67
453.126	202.92
453.337	-135
453.548	-223.06
453.759	309.41
453.97	481.44
454.181	-8.02
454.391	-132.95
454.602	18.6
454.813	100.52
455.024	-186.19
455.235	-155.47
455.445	116.9
455.656	211.11
455.867	-53.08
456.078	-315.22
456.288	-34.64
456.499	114.86
456.71	-206.67
456.921	-53.08
457.131	221.35
457.342	123.05
457.553	-89.94
457.763	-171.86
457.974	213.16
458.184	235.69
458.395	-284.5
458.606	-270.16
458.816	235.69
459.027	526.5
459.237	-22.36
459.448	-417.61
459.659	366.76
459.869	540.83
460.08	-393.04
460.29	-75.6
460.501	465.06
460.711	-147.28
460.922	-319.31
461.132	-225.11
461.343	643.23
461.553	-178
461.764	-274.26
461.974	-212.82
462.184	288.93
462.395	143.53
462.605	-180.05
462.816	-239.44
463.026	110.76
463.236	305.32
463.447	-296.78
463.657	-196.43
463.867	186.54
464.078	26.79
464.288	-163.67
464.498	-264.02
464.709	10.41
464.919	-14.17
465.129	-163.67
465.339	-276.31
465.55	288.93
465.76	204.97
465.97	-223.06
466.18	-272.21
466.391	184.49
466.601	123.05
466.811	-112.47
467.021	-272.21
467.231	86.19
467.441	272.55
467.651	-151.38
467.862	-425.81
468.072	4.27
468.282	401.57
468.492	-208.72
468.702	-155.47
468.912	92.33
469.122	602.27
469.332	67.75
469.542	-290.64
469.752	186.54
469.962	98.47
470.172	-280.4
470.382	-245.59
470.592	114.86
470.802	325.8
471.012	-165.71
471.222	-229.2
471.432	329.89
471.642	225.45
471.852	-28.5
472.062	-231.25
472.272	-61.27
472.482	-229.2
472.691	-298.83
472.901	-368.46
473.111	172.2
473.321	585.89
473.531	-325.46
473.741	-182.1
473.95	196.78
474.16	180.39
474.37	-190.29
474.58	-304.98
474.79	415.91
474.999	276.65
475.209	-223.06
475.419	-210.77
475.628	-98.13
475.838	309.41
476.048	-173.91
476.258	-251.73
476.467	284.84
476.677	-178
476.886	-118.61
477.096	-141.14
477.306	-71.51
477.515	426.15
477.725	-227.15
477.935	-143.19
478.144	401.57
478.354	-61.27
478.563	-141.14
478.773	-241.49
478.982	235.69
479.192	352.42
479.401	-135
479.611	-247.63
479.82	-151.38
480.03	61.61
480.239	-255.83
480.449	-247.63
480.658	460.96
480.868	-194.39
481.077	-194.39
481.287	-182.1
481.496	178.34
481.705	385.19
481.915	84.14
482.124	10.41
482.333	131.24
482.543	399.52
482.752	-153.43
482.961	-239.44
483.171	229.54
483.38	67.75
483.589	-145.24
483.799	-372.56
484.008	8.36
484.217	192.68
484.426	-210.77
484.636	-296.78
484.845	51.37
485.054	-266.07
485.263	59.56
485.472	-155.47
485.682	465.06
485.891	43.18
486.1	-311.12
486.309	-196.43
486.518	155.82
486.727	379.04
486.936	-290.64
487.146	-112.47
487.355	379.04
487.564	-194.39
487.773	-141.14
487.982	-218.96
488.191	-51.03
488.4	22.7
488.609	-169.81
488.818	-278.35
489.027	589.99
489.236	313.51
489.445	-178
489.654	-296.78
489.863	233.64
490.072	88.23
490.281	34.99
490.49	-221.01
490.698	383.14
490.907	354.47
491.116	-157.52
491.325	-362.32
491.534	422.05
491.743	159.91
491.952	-175.95
492.16	-212.82
492.369	139.43
492.578	282.79
492.787	-155.47
492.996	-321.36
493.204	-48.98
493.413	450.72
493.622	-460.62
493.831	-350.03
494.039	471.2
494.248	-249.68
494.457	-235.35
494.665	-376.66
494.874	184.49
495.083	499.88
495.291	-235.35
495.5	-202.58
495.709	299.17
495.917	149.67
496.126	-100.18
496.335	-245.59
496.543	-14.17
496.752	84.14
496.96	-5.97
497.169	-354.13
497.377	47.27
497.586	325.8
497.794	-151.38
498.003	-356.18
498.211	49.32
498.42	389.28
498.628	-104.28
498.837	-403.28
499.045	133.29
499.254	147.62
499.462	-210.77
499.671	-319.31
499.879	448.68
500.087	364.71
500.296	-239.44
500.504	-157.52
500.713	71.85
500.921	626.85
501.129	-255.83
501.338	-231.25
501.546	67.75
501.754	26.79
501.962	-212.82
502.171	-292.69
502.379	207.02
502.587	374.95
502.795	-116.56
503.004	-245.59
503.212	18.6
503.42	297.13
503.628	-196.43
503.837	-139.09
504.045	202.92
504.253	372.9
504.461	-178
504.669	-407.38
504.877	221.35
505.085	430.24
505.294	-413.52
505.502	-32.6
505.71	-14.17
505.918	260.26
506.126	-302.93
506.334	-200.53
506.542	-5.97
506.75	211.11
506.958	-157.52
507.166	-167.76
507.374	-51.03
507.582	497.83
507.79	-175.95
507.998	-288.59
508.206	75.95
508.414	166.06
508.622	-239.44
508.83	-225.11
509.037	469.16
509.245	59.56
509.453	-370.51
509.661	-296.78
509.869	211.11
510.077	20.65
510.285	-165.71
510.492	-464.72
510.7	551.07
510.908	-44.88
511.116	-167.76
511.324	-159.57
511.531	-34.64
511.739	102.57
511.947	-83.8
512.155	55.47
512.362	135.34
512.57	-169.81
512.778	-200.53
512.985	-378.7
513.193	354.47
513.401	383.14
513.608	-159.57
513.816	-251.73
514.024	186.54
514.231	219.3
514.439	-284.5
514.646	-257.87
514.854	250.02
515.061	311.46
515.269	-268.11
515.477	-229.2
515.684	-147.28
515.892	252.07
516.099	-364.37
516.307	-364.37
516.514	211.11
516.722	467.11
516.929	-190.29
517.136	-350.03
517.344	377
517.551	63.66
517.759	-272.21
517.966	-163.67
518.173	-79.7
518.381	26.79
518.588	-135
518.796	-321.36
519.003	217.26
519.21	-14.17
519.418	-317.26
519.625	-18.26
519.832	32.94
520.039	57.51
520.247	-384.85
520.454	-241.49
520.661	342.18
520.868	198.82
521.076	-210.77
521.283	-210.77
521.49	628.9
521.697	143.53
521.904	-143.19
522.112	-253.78
522.319	153.77
522.526	172.2
522.733	-386.9
522.94	-251.73
523.147	67.75
523.354	219.3
523.561	-382.8
523.768	-178
523.975	286.89
524.183	51.37
524.39	-241.49
524.597	-390.99
524.804	10.41
525.011	-139.09
525.218	-284.5
525.425	-354.13
525.632	473.25
525.838	-163.67
526.045	-253.78
526.252	-372.56
526.459	1085.59
526.666	725.15
526.873	-294.74
527.08	-272.21
527.287	358.57
527.494	329.89
527.701	-395.09
527.907	-345.94
528.114	225.45
528.321	63.66
528.528	-218.96
528.735	-253.78
528.941	-51.03
529.148	-59.22
529.355	-171.86
529.562	-360.27
529.768	325.8
529.975	-20.31
530.182	-169.81
530.388	-268.11
530.595	225.45
530.802	-194.39
531.008	-145.24
531.215	-270.16
531.422	610.47
531.628	741.54
531.835	-100.18
532.042	-108.37
532.248	-165.71
532.455	104.62
532.661	-235.35
532.868	-237.39
533.074	121
533.281	219.3
533.487	-206.67
533.694	-294.74
533.9	-171.86
534.107	188.58
534.313	-200.53
534.52	-319.31
534.726	235.69
534.933	463.01
535.139	-286.54
535.345	-339.79
535.552	110.76
535.758	16.55
535.965	-175.95
536.171	-270.16
536.377	176.3
536.584	346.28
536.79	-319.31
536.996	-198.48
537.203	96.43
537.409	137.38
537.615	-259.92
537.821	-96.08
538.028	250.02
538.234	180.39
538.44	-190.29
538.646	-178
538.853	135.34
539.059	18.6
539.265	131.24
539.471	-378.7
539.677	194.73
539.883	-30.55
540.09	-163.67
540.296	153.77
540.502	-30.55
540.708	-91.99
540.914	-104.28
541.12	-329.55
541.326	219.3
541.532	-16.21
541.738	-221.01
541.944	-272.21
542.15	354.47
542.356	-10.07
542.562	-333.65
542.768	-184.15
542.974	528.55
543.18	551.07
543.386	-292.69
543.592	-452.43
543.798	329.89
544.004	178.34
544.21	-343.89
544.415	-190.29
544.621	69.8
544.827	319.65
545.033	-347.98
545.239	-116.56
545.445	-194.39
545.651	41.13
545.856	-243.54
546.062	-253.78
546.268	-141.14
546.474	143.53
546.679	-274.26
546.885	-182.1
547.091	-77.65
547.297	524.45
547.502	-182.1
547.708	-358.22
547.914	-36.69
548.119	180.39
548.325	-288.59
548.531	-319.31
548.736	346.28
548.942	-69.46
549.147	-227.15
549.353	-81.75
549.559	329.89
549.764	71.85
549.97	-190.29
550.175	-212.82
550.381	225.45
550.586	-55.12
550.792	-180.05
550.997	-266.07
551.203	151.72
551.408	164.01
551.614	-372.56
551.819	-325.46
552.025	475.3
552.23	596.13
552.435	-347.98
552.641	-28.5
552.846	-171.86
553.052	319.65
553.257	-204.63
553.462	-251.73
553.668	-149.33
553.873	270.5
554.078	-261.97
554.283	-354.13
554.489	123.05
554.694	-1.88
554.899	-350.03
555.105	-71.51
555.31	153.77
555.515	145.58
555.72	-202.58
555.925	-278.35
556.131	278.69
556.336	-87.89
556.541	-296.78
556.746	-309.07
556.951	276.65
557.156	426.15
557.361	-159.57
557.567	-147.28
557.772	596.13
557.977	121
558.182	-270.16
558.387	-280.4
558.592	-65.36
558.797	297.13
559.002	-157.52
559.207	-128.85
559.412	106.67
559.617	481.44
559.822	-276.31
560.027	-290.64
560.232	178.34
560.437	239.78
560.642	-337.74
560.847	-315.22
561.051	67.75
561.256	57.51
561.461	-218.96
561.666	-364.37
561.871	73.9
562.076	276.65
562.281	-186.19
562.485	-368.46
562.69	198.82
562.895	323.75
563.1	-292.69
563.305	-274.26
563.509	325.8
563.714	569.51
563.919	-237.39
564.123	-241.49
564.328	-44.88
564.533	286.89
564.737	-210.77
564.942	-253.78
565.147	340.13
565.351	567.46
565.556	-130.9
565.761	-130.9
565.965	143.53
566.17	-130.9
566.374	-186.19
566.579	-382.8
566.784	39.08
566.988	-91.99
567.193	-321.36
567.397	-296.78
567.602	-206.67
567.806	49.32
568.011	-221.01
568.215	-151.38
568.42	24.75
568.624	30.89
568.828	-288.59
569.033	-116.56
569.237	243.88
569.442	77.99
569.646	-393.04
569.85	-173.91
570.055	-100.18
570.259	123.05
570.463	-139.09
570.668	-249.68
570.872	-59.22
571.076	51.37
571.281	-182.1
571.485	-153.43
571.689	75.95
571.893	252.07
572.098	-186.19
572.302	-341.84
572.506	219.3
572.71	39.08
572.914	-149.33
573.119	-192.34
573.323	456.87
573.527	417.96
573.731	-194.39
573.935	-350.03
574.139	174.25
574.343	-14.17
574.547	-204.63
574.751	-202.58
574.955	422.05
575.159	325.8
575.364	-350.03
575.568	-302.93
575.772	32.94
575.976	270.5
576.18	-327.5
576.383	-386.9
576.587	211.11
576.791	211.11
576.995	-399.18
577.199	-399.18
577.403	245.93
577.607	381.09
577.811	-296.78
578.015	-208.72
578.219	135.34
578.422	252.07
578.626	-79.7
578.83	-63.32
579.034	305.32
579.238	143.53
579.442	-347.98
579.645	100.52
579.849	39.08
580.053	49.32
580.257	-206.67
580.46	-169.81
580.664	254.12
580.868	186.54
581.071	-12.12
581.275	-48.98
581.479	-284.5
581.682	215.21
581.886	-323.41
582.09	-77.65
582.293	178.34
582.497	221.35
582.7	-73.56
582.904	-350.03
583.107	43.18
583.311	-79.7
583.515	-149.33
583.718	-161.62
583.922	270.5
584.125	510.11
584.329	-272.21
584.532	-85.84
584.735	377
584.939	194.73
585.142	-366.42
585.346	-315.22
585.549	90.28
585.753	-32.6
585.956	-180.05
586.159	-120.66
586.363	497.83
586.566	178.34
586.769	-268.11
586.973	-282.45
587.176	209.06
587.379	383.14
587.582	-48.98
587.786	-94.04
587.989	-34.64
588.192	635.04
588.395	-143.19
588.599	-34.64
588.802	190.63
589.005	239.78
589.208	-216.91
589.411	-196.43
589.615	237.74
589.818	374.95
590.021	-14.17
590.224	-149.33
590.427	235.69
590.63	170.15
590.833	-354.13
591.036	-313.17
591.239	-36.69
591.442	-114.52
591.645	16.55
591.848	-218.96
592.051	71.85
592.254	247.97
592.457	-132.95
592.66	-180.05
592.863	65.71
593.066	100.52
593.269	-206.67
593.472	-110.42
593.675	-106.32
593.878	297.13
594.081	-114.52
594.284	-272.21
594.486	129.19
594.689	129.19
594.892	-210.77
595.095	-139.09
595.298	151.72
595.5	-18.26
595.703	-108.37
595.906	-91.99
596.109	385.19
596.311	268.45
596.514	-434
596.717	-190.29
596.92	276.65
597.122	184.49
597.325	-399.18
597.528	-243.54
597.73	233.64
597.933	26.79
598.136	-165.71
598.338	-427.85
598.541	264.36
598.743	284.84
598.946	-169.81
599.148	-169.81
599.351	274.6
599.554	268.45
599.756	-118.61
599.959	-264.02
600.161	219.3
600.363	628.9
600.566	-10.07
600.768	-235.35
600.971	469.16
601.173	247.97
601.376	-235.35
601.578	-149.33
601.78	186.54
601.983	534.69
602.185	-317.26
602.388	-75.6
602.59	196.78
602.792	-55.12
602.995	-40.79
603.197	-225.11
603.399	276.65
603.601	147.62
603.804	-147.28
604.006	-227.15
604.208	67.75
604.41	-292.69
604.613	-81.75
604.815	-307.02
605.017	575.65
605.219	-69.46
605.421	116.9
605.623	-188.24
605.826	424.1
606.028	352.42
606.23	-223.06
606.432	-247.63
606.634	450.72
606.836	346.28
607.038	-339.79
607.24	-79.7
607.442	-20.31
607.644	127.14
607.846	-102.23
608.048	-229.2
608.25	377
608.452	-75.6
608.654	-194.39
608.856	-456.53
609.058	125.1
609.26	182.44
609.462	-77.65
609.664	-202.58
609.866	450.72
610.067	231.59
610.269	-81.75
610.471	-147.28
610.673	-46.93
610.875	354.47
611.077	-278.35
611.278	-55.12
611.48	39.08
611.682	450.72
611.884	-110.42
612.085	-165.71
612.287	-178
612.489	192.68
612.69	-376.66
612.892	-100.18
613.094	247.97
613.295	75.95
613.497	-298.83
613.699	-151.38
613.9	475.3
614.102	280.74
614.304	-94.04
614.505	-343.89
614.707	92.33
614.908	88.23
615.11	-343.89
615.311	-122.71
615.513	305.32
615.714	217.26
615.916	-337.74
616.117	-202.58
616.319	67.75
616.52	252.07
616.722	-124.76
616.923	-233.3
617.124	338.09
617.326	252.07
617.527	-83.8
617.729	6.31
617.93	286.89
618.131	237.74
618.333	-190.29
618.534	-112.47
618.735	-71.51
618.937	438.44
619.138	-313.17
619.339	-337.74
619.54	217.26
619.742	32.94
619.943	-8.02
620.144	-167.76
620.345	297.13
620.546	260.26
620.748	-227.15
620.949	-118.61
621.15	164.01
621.351	141.48
621.552	-124.76
621.753	-331.6
621.954	-280.4
622.155	587.94
622.356	-261.97
622.558	-106.32
622.759	96.43
622.96	551.07
623.161	-67.41
623.362	-161.62
623.563	22.7
623.764	51.37
623.965	-98.13
624.166	-26.45
624.366	34.99
624.567	198.82
624.768	-452.43
624.969	-188.24
625.17	-1.88
625.371	276.65
625.572	-104.28
625.773	-298.83
625.973	258.21
626.174	204.97
626.375	-91.99
626.576	-124.76
626.777	241.83
626.977	514.21
627.178	-235.35
627.379	-83.8
627.58	20.65
627.78	135.34
627.981	-77.65
628.182	-87.89
628.382	372.9
628.583	-178
628.784	-290.64
628.984	18.6
629.185	278.69
629.386	278.69
629.586	-163.67
629.787	-304.98
629.987	293.03
630.188	34.99
630.388	-178
630.589	-108.37
630.79	620.71
630.99	82.09
631.191	-81.75
631.391	-128.85
631.591	280.74
631.792	460.96
631.992	-106.32
632.193	-235.35
632.393	383.14
632.594	116.9
632.794	-186.19
632.994	-51.03
633.195	145.58
633.395	155.82
633.595	-235.35
633.796	157.86
633.996	-147.28
634.196	479.4
634.397	-339.79
634.597	-169.81
634.797	-48.98
634.997	501.92
635.198	22.7
635.398	-274.26
635.598	116.9
635.798	481.44
635.998	295.08
636.199	-247.63
636.399	-85.84
636.599	-163.67
636.799	-139.09
636.999	10.41
637.199	239.78
637.399	219.3
637.599	-130.9
637.799	-30.55
637.999	-79.7
638.199	465.06
638.399	-233.3
638.599	-161.62
638.799	129.19
638.999	639.14
639.199	59.56
639.399	-114.52
639.599	465.06
639.799	-145.24
639.999	-171.86
640.199	-272.21
640.399	123.05
640.599	166.06
640.799	-34.64
640.998	92.33
641.198	344.23
641.398	145.58
641.598	-46.93
641.798	-40.79
641.997	993.44
642.197	71.85
642.397	-108.37
642.597	-85.84
642.796	233.64
642.996	409.76
643.196	43.18
643.395	-245.59
643.595	166.06
643.795	-304.98
643.994	-149.33
644.194	-118.61
644.394	280.74
644.593	114.86
644.793	-276.31
644.992	6.31
645.192	276.65
645.392	-350.03
645.591	-18.26
645.791	-100.18
645.99	258.21
646.19	57.51
646.389	-108.37
646.589	-124.76
646.788	194.73
646.987	321.7
647.187	114.86
647.386	20.65
647.586	182.44
647.785	225.45
647.984	-75.6
648.184	-106.32
648.383	-12.12
648.582	63.66
648.782	-126.8
648.981	-20.31
649.18	-22.36
649.38	155.82
649.579	-202.58
649.778	-108.37
649.977	268.45
650.177	133.29
650.376	-216.91
650.575	-157.52
650.774	440.48
650.973	-65.36
651.173	-206.67
651.372	-155.47
651.571	141.48
651.77	317.61
651.969	-83.8
652.168	-106.32
652.367	-87.89
652.566	145.58
652.765	-186.19
652.964	123.05
653.163	600.23
653.362	86.19
653.561	-67.41
653.76	-149.33
653.959	-1.88
654.158	252.07
654.357	141.48
654.556	-20.31
654.755	237.74
654.954	333.99
655.153	-38.74
655.352	-102.23
655.551	456.87
655.749	-8.02
655.948	-96.08
656.147	-48.98
656.346	196.78
656.545	65.71
656.743	-32.6
656.942	-40.79
657.141	168.1
657.34	-42.84
657.538	-69.46
657.737	-112.47
657.936	-1.88
658.135	237.74
658.333	2.22
658.532	-51.03
658.731	510.11
658.929	284.84
659.128	139.43
659.326	-128.85
659.525	340.13
659.724	213.16
659.922	-253.78
660.121	-192.34
660.319	227.5
660.518	-65.36
660.716	-212.82
660.915	-190.29
661.113	346.28
661.312	-98.13
661.51	6.31
661.709	-145.24
661.907	264.36
662.105	448.68
662.304	-163.67
662.502	-112.47
662.701	395.43
662.899	55.47
663.097	114.86
663.296	-298.83
663.494	405.67
663.692	501.92
663.891	-159.57
664.089	-243.54
664.287	272.55
664.485	508.07
664.684	-235.35
664.882	22.7
665.08	129.19
665.278	166.06
665.476	-210.77
665.675	172.2
665.873	620.71
666.071	368.81
666.269	-67.41
666.467	94.38
666.665	137.38
666.863	137.38
667.061	69.8
667.259	-128.85
667.457	98.47
667.655	239.78
667.853	-218.96
668.051	-63.32
668.249	-69.46
668.447	213.16
668.645	-214.87
668.843	75.95
669.041	266.41
669.239	-14.17
669.437	2.22
669.635	55.47
669.833	18.6
670.031	301.22
670.229	22.7
670.426	-34.64
670.624	41.13
670.822	-51.03
671.02	-65.36
671.218	4.27
671.415	-124.76
671.613	86.19
671.811	-32.6
672.009	-67.41
672.206	278.69
672.404	88.23
672.602	174.25
672.799	22.7
672.997	125.1
673.195	426.15
673.392	34.99
673.59	-149.33
673.788	377
673.985	-214.87
674.183	-51.03
674.38	-120.66
674.578	348.33
674.775	-75.6
674.973	-198.48
675.17	-149.33
675.368	473.25
675.565	254.12
675.763	-178
675.96	-161.62
676.158	393.38
676.355	94.38
676.553	-130.9
676.75	-137.04
676.947	92.33
677.145	164.01
677.342	-63.32
677.539	16.55
677.737	166.06
677.934	669.86
678.131	71.85
678.329	-130.9
678.526	514.21
678.723	247.97
678.92	14.51
679.118	-104.28
679.315	-141.14
679.512	487.59
679.709	39.08
679.906	-36.69
680.104	432.29
680.301	166.06
680.498	-208.72
680.695	-116.56
680.892	49.32
681.089	14.51
681.286	-71.51
681.483	-223.06
681.68	274.6
681.877	297.13
682.075	-1.88
682.272	143.53
682.469	217.26
682.665	96.43
682.862	-96.08
683.059	-233.3
683.256	202.92
683.453	102.57
683.65	55.47
683.847	-87.89
684.044	94.38
684.241	-75.6
684.438	55.47
684.635	-167.76
684.831	557.22
685.028	592.03
685.225	-100.18
685.422	14.51
685.619	98.47
685.815	172.2
686.012	-83.8
686.209	-38.74
686.405	-102.23
686.602	333.99
686.799	-124.76
686.996	-79.7
687.192	-75.6
687.389	624.8
687.586	-192.34
687.782	-65.36
687.979	393.38
688.175	420
688.372	22.7
688.568	-65.36
688.765	28.84
688.962	415.91
689.158	67.75
689.355	-190.29
689.551	333.99
689.748	-55.12
689.944	22.7
690.14	-218.96
690.337	354.47
690.533	-40.79
690.73	192.68
690.926	22.7
691.123	311.46
691.319	147.62
691.515	-190.29
691.712	125.1
691.908	293.03
692.104	215.21
692.301	-3.93
692.497	-132.95
692.693	366.76
692.889	383.14
693.086	94.38
693.282	-358.22
693.478	172.2
693.674	497.83
693.87	-16.21
694.067	-261.97
694.263	196.78
694.459	69.8
694.655	108.71
694.851	39.08
695.047	340.13
695.243	358.57
695.439	166.06
695.635	-122.71
695.831	372.9
696.027	219.3
696.224	-75.6
696.42	235.69
696.615	487.59
696.811	301.22
697.007	-137.04
697.203	2.22
697.399	260.26
697.595	438.44
697.791	-96.08
697.987	92.33
698.183	-112.47
698.379	-81.75
698.575	-18.26
698.77	51.37
698.966	393.38
699.162	460.96
699.358	20.65
699.554	-122.71
699.749	313.51
699.945	440.48
700.141	106.67
700.337	139.43
700.532	118.95
700.728	69.8
700.924	-42.84
701.119	-235.35
701.315	276.65
701.511	98.47
701.706	71.85
701.902	-218.96
702.097	125.1
702.293	342.18
702.489	4.27
702.684	-40.79
702.88	77.99
703.075	34.99
703.271	18.6
703.466	-139.09
703.662	180.39
703.857	284.84
704.053	-128.85
704.248	-67.41
704.443	303.27
704.639	309.41
704.834	-20.31
705.03	-16.21
705.225	385.19
705.42	444.58
705.616	96.43
705.811	-114.52
706.006	147.62
706.202	110.76
706.397	59.56
706.592	-67.41
706.787	102.57
706.983	204.97
707.178	229.54
707.373	-8.02
707.568	323.75
707.763	350.37
707.959	-81.75
708.154	-14.17
708.349	237.74
708.544	243.88
708.739	192.68
708.934	-182.1
709.129	356.52
709.324	354.47
709.519	-141.14
709.714	-48.98
709.909	485.54
710.104	282.79
710.299	-67.41
710.494	-46.93
710.689	366.76
710.884	209.06
711.079	49.32
711.274	127.14
711.469	368.81
711.664	182.44
711.859	-69.46
712.054	12.46
712.249	313.51
712.443	401.57
712.638	-130.9
712.833	-110.42
713.028	254.12
713.223	149.67
713.417	164.01
713.612	-1.88
713.807	368.81
714.002	757.92
714.196	131.24
714.391	-36.69
714.586	338.09
714.78	155.82
714.975	-26.45
715.17	-57.17
715.364	51.37
715.559	401.57
715.754	-251.73
715.948	-46.93
716.143	630.95
716.337	293.03
716.532	155.82
716.726	-38.74
716.921	438.44
717.115	626.85
717.31	-173.91
717.504	391.33
717.699	192.68
717.893	356.52
718.088	-182.1
718.282	-184.15
718.476	288.93
718.671	278.69
718.865	-36.69
719.059	-16.21
719.254	219.3
719.448	452.77
719.642	125.1
719.837	-266.07
720.031	415.91
720.225	460.96
720.419	96.43
720.614	-22.36
720.808	409.76
721.002	217.26
721.196	-104.28
721.39	-104.28
721.585	589.99
721.779	190.63
721.973	8.36
722.167	-112.47
722.361	295.08
722.555	405.67
722.749	-81.75
722.943	-3.93
723.137	-77.65
723.331	280.74
723.525	-51.03
723.719	-65.36
723.913	293.03
724.107	491.68
724.301	-175.95
724.495	-48.98
724.689	669.86
724.883	485.54
725.077	30.89
725.271	-34.64
725.465	493.73
725.659	211.11
725.853	2.22
726.046	-184.15
726.24	147.62
726.434	456.87
726.628	2.22
726.822	-22.36
727.015	520.35
727.209	514.21
727.403	-61.27
727.596	-188.24
727.79	374.95
727.984	493.73
728.177	-26.45
728.371	59.56
728.565	430.24
728.758	-55.12
728.952	-122.71
729.146	4.27
729.339	485.54
729.533	170.15
729.726	-26.45
729.92	-163.67
730.113	481.44
730.307	303.27
730.5	-139.09
730.694	-28.5
730.887	135.34
731.081	333.99
731.274	-120.66
731.468	-32.6
731.661	188.58
731.854	69.8
732.048	-16.21
732.241	-137.04
732.435	59.56
732.628	264.36
732.821	-28.5
733.014	-81.75
733.208	-38.74
733.401	331.94
733.594	-38.74
733.788	-36.69
733.981	557.22
734.174	293.03
734.367	-112.47
734.56	24.75
734.754	399.52
734.947	221.35
735.14	-132.95
735.333	-48.98
735.526	381.09
735.719	71.85
735.912	-75.6
736.105	-106.32
736.298	229.54
736.491	84.14
736.684	-48.98
736.877	-178
737.07	303.27
737.263	516.26
737.456	-104.28
737.649	-173.91
737.842	59.56
738.035	243.88
738.228	-57.17
738.421	92.33
738.614	456.87
738.807	321.7
739	-167.76
739.192	-102.23
739.385	293.03
739.578	262.31
739.771	180.39
739.964	-36.69
740.156	266.41
740.349	221.35
740.542	112.81
740.735	-188.24
740.927	-79.7
741.12	71.85
741.313	-114.52
741.505	32.94
741.698	245.93
741.891	377
742.083	71.85
742.276	-112.47
742.468	157.86
742.661	184.49
742.854	-51.03
743.046	-32.6
743.239	514.21
743.431	157.86
743.624	-5.97
743.816	-188.24
744.009	194.73
744.201	338.09
744.393	100.52
744.586	-165.71
744.778	467.11
744.971	190.63
745.163	71.85
745.355	6.31
745.548	159.91
745.74	63.66
745.932	75.95
746.125	-46.93
746.317	655.52
746.509	176.3
746.702	-18.26
746.894	-14.17
747.086	217.26
747.278	520.35
747.471	125.1
747.663	0.17
747.855	231.59
748.047	589.99
748.239	-147.28
748.431	-104.28
748.623	596.13
748.815	608.42
749.008	-69.46
749.2	-120.66
749.392	366.76
749.584	311.46
749.776	26.79
749.968	125.1
750.16	585.89
750.352	190.63
750.544	49.32
750.736	-59.22
750.928	270.5
751.12	114.86
751.311	14.51
751.503	45.23
751.695	329.89
751.887	127.14
752.079	-261.97
752.271	-28.5
752.463	975
752.654	366.76
752.846	30.89
753.038	73.9
753.23	26.79
753.421	358.57
753.613	37.03
753.805	129.19
753.997	383.14
754.188	456.87
754.38	-149.33
754.572	28.84
754.763	139.43
754.955	383.14
755.146	55.47
755.338	118.95
755.53	293.03
755.721	112.81
755.913	-130.9
756.104	-143.19
756.296	90.28
756.487	374.95
756.679	-124.76
756.87	-57.17
757.062	104.62
757.253	374.95
757.445	-114.52
757.636	116.9
757.827	127.14
758.019	784.54
758.21	-130.9
758.401	-65.36
758.593	657.57
758.784	510.11
758.975	-128.85
759.167	-116.56
759.358	243.88
759.549	381.09
759.74	-34.64
759.932	-36.69
760.123	563.36
760.314	102.57
760.505	121
760.696	-100.18
760.888	632.99
761.079	63.66
761.27	-116.56
761.461	-264.02
761.652	624.8
761.843	86.19
762.034	-48.98
762.225	217.26
762.416	157.86
762.607	233.64
762.798	34.99
762.989	-85.84
763.18	997.53
763.371	159.91
763.562	-116.56
763.753	-32.6
763.944	506.02
764.135	407.72
764.326	116.9
764.517	-20.31
764.708	317.61
764.899	417.96
765.089	-69.46
765.28	-161.62
765.471	233.64
765.662	415.91
765.853	55.47
766.043	-194.39
766.234	460.96
766.425	446.63
766.615	47.27
766.806	-98.13
766.997	491.68
767.187	327.85
767.378	-100.18
767.569	-214.87
767.759	319.65
767.95	245.93
768.141	106.67
768.331	-141.14
768.522	227.5
768.712	264.36
768.903	-186.19
769.093	-159.57
769.284	506.02
769.474	194.73
769.665	-235.35
769.855	-251.73
770.046	317.61
770.236	34.99
770.426	219.3
770.617	-128.85
770.807	303.27
770.998	141.48
771.188	121
771.378	-112.47
771.569	407.72
771.759	415.91
771.949	-159.57
772.139	-304.98
772.33	247.97
772.52	508.07
772.71	-141.14
772.9	-141.14
773.09	571.55
773.281	475.3
773.471	-57.17
773.661	-34.64
773.851	563.36
774.041	135.34
774.231	-180.05
774.421	88.23
774.611	602.27
774.802	204.97
774.992	45.23
775.182	-126.8
775.372	211.11
775.562	401.57
775.752	-42.84
775.942	-26.45
776.131	530.59
776.321	315.56
776.511	39.08
776.701	-167.76
776.891	393.38
777.081	-98.13
777.271	-57.17
777.461	-100.18
777.651	403.62
777.84	497.83
778.03	34.99
778.22	-67.41
778.41	573.6
778.599	-51.03
778.789	16.55
778.979	-145.24
779.169	377
779.358	260.26
779.548	147.62
779.738	-253.78
779.927	272.55
780.117	4.27
780.307	-87.89
780.496	-282.45
780.686	323.75
780.875	508.07
781.065	-171.86
781.254	-112.47
781.444	192.68
781.633	176.3
781.823	-108.37
782.012	-100.18
782.202	114.86
782.391	125.1
782.581	-249.68
782.77	69.8
782.96	313.51
783.149	168.1
783.338	-94.04
783.528	-296.78
783.717	354.47
783.906	432.29
784.096	116.9
784.285	-112.47
784.474	63.66
784.663	55.47
784.853	-1.88
785.042	-22.36
785.231	45.23
785.42	460.96
785.61	26.79
785.799	-139.09
785.988	26.79
786.177	196.78
786.366	-65.36
786.555	57.51
786.744	422.05
786.933	170.15
787.122	-116.56
787.312	-180.05
787.501	106.67
787.69	293.03
787.879	-132.95
788.068	-63.32
788.257	-48.98
788.445	71.85
788.634	-85.84
788.823	-206.67
789.012	813.21
789.201	432.29
789.39	41.13
789.579	-169.81
789.768	209.06
789.957	219.3
790.145	-36.69
790.334	-345.94
790.523	153.77
790.712	219.3
790.9	16.55
791.089	-190.29
791.278	485.54
791.467	256.17
791.655	135.34
791.844	348.33
792.033	-22.36
792.221	131.24
792.41	67.75
792.599	-218.96
792.787	362.66
792.976	403.62
793.164	-91.99
793.353	-51.03
793.541	333.99
793.73	370.85
793.918	-51.03
794.107	-149.33
794.295	192.68
794.484	231.59
794.672	6.31
794.861	-42.84
795.049	387.24
795.238	635.04
795.426	-192.34
795.614	-1.88
795.803	274.6
795.991	567.46
796.179	-132.95
796.368	-42.84
796.556	456.87
796.744	-18.26
796.932	-128.85
797.121	-79.7
797.309	139.43
797.497	458.92
797.685	-24.4
797.874	-77.65
798.062	143.53
798.25	559.27
798.438	-186.19
798.626	-75.6
798.814	364.71
799.002	719.01
799.19	84.14
799.378	-124.76
799.566	450.72
799.755	481.44
799.943	108.71
800.131	-104.28
800.318	268.45
800.506	362.66
800.694	-83.8
800.882	106.67
801.07	510.11
801.258	188.58
801.446	-91.99
801.634	-42.84
801.822	239.78
802.01	186.54
802.197	-145.24
802.385	71.85
802.573	198.82
802.761	84.14
802.949	14.51
803.136	-255.83
803.324	424.1
803.512	172.2
803.699	37.03
803.887	-255.83
804.075	510.11
804.262	108.71
804.45	-239.44
804.638	39.08
804.825	63.66
805.013	-24.4
805.201	-51.03
805.388	-143.19
805.576	176.3
805.763	553.12
805.951	-63.32
806.138	6.31
806.326	559.27
806.513	207.02
806.701	-51.03
806.888	-190.29
807.075	192.68
807.263	667.81
807.45	-286.54
807.638	-18.26
807.825	698.53
808.012	370.85
808.2	-132.95
808.387	176.3
808.574	293.03
808.761	563.36
808.949	-132.95
809.136	-14.17
809.323	129.19
809.51	88.23
809.698	264.36
809.885	172.2
810.072	245.93
810.259	391.33
810.446	26.79
810.633	-48.98
810.82	401.57
811.008	540.83
811.195	92.33
811.382	-10.07
811.569	198.82
811.756	18.6
811.943	-67.41
812.13	-75.6
812.317	114.86
812.504	147.62
812.691	157.86
812.878	55.47
813.064	542.88
813.251	247.97
813.438	-147.28
813.625	88.23
813.812	141.48
813.999	47.27
814.186	6.31
814.372	-5.97
814.559	190.63
814.746	549.03
814.933	-61.27
815.12	145.58
815.306	108.71
815.493	-26.45
815.68	-151.38
815.866	-28.5
816.053	450.72
816.24	589.99
816.426	57.51
816.613	-132.95
816.799	424.1
816.986	493.73
817.173	-157.52
817.359	-149.33
817.546	284.84
817.732	-149.33
817.919	-216.91
818.105	39.08
818.292	135.34
818.478	260.26
818.665	22.7
818.851	-40.79
819.037	768.16
819.224	288.93
819.41	-91.99
819.597	-83.8
819.783	589.99
819.969	399.52
820.156	-10.07
820.342	-132.95
820.528	944.28
820.714	204.97
820.901	174.25
821.087	-83.8
821.273	571.55
821.459	170.15
821.646	-190.29
821.832	-202.58
822.018	241.83
822.204	243.88
822.39	-18.26
822.576	-145.24
822.762	309.41
822.948	284.84
823.134	94.38
823.32	39.08
823.507	-65.36
823.693	231.59
823.879	370.85
824.065	-36.69
824.25	313.51
824.436	55.47
824.622	-10.07
824.808	-157.52
824.994	80.04
825.18	-1.88
825.366	-198.48
825.552	-116.56
825.738	108.71
825.923	422.05
826.109	157.86
826.295	-73.56
826.481	-38.74
826.667	123.05
826.852	2.22
827.038	-145.24
827.224	344.23
827.409	651.42
827.595	-132.95
827.781	161.96
827.966	516.26
828.152	417.96
828.338	-32.6
828.523	-218.96
828.709	-8.02
828.894	534.69
829.08	-63.32
829.266	-137.04
829.451	2.22
829.637	348.33
829.822	55.47
830.008	-91.99
830.193	420
830.378	645.28
830.564	-30.55
830.749	-118.61
830.935	342.18
831.12	469.16
831.305	-85.84
831.491	65.71
831.676	-22.36
831.861	374.95
832.047	67.75
832.232	-130.9
832.417	491.68
832.602	264.36
832.788	-81.75
832.973	-75.6
833.158	272.55
833.343	268.45
833.528	-14.17
833.714	104.62
833.899	321.7
834.084	661.66
834.269	129.19
834.454	-36.69
834.639	360.61
834.824	141.48
835.009	16.55
835.194	94.38
835.379	411.81
835.564	719.01
835.749	45.23
835.934	-165.71
836.119	366.76
836.304	229.54
836.489	-16.21
836.674	172.2
836.859	94.38
837.044	608.42
837.228	-57.17
837.413	-59.22
837.598	221.35
837.783	413.86
837.968	-81.75
838.152	-182.1
838.337	-198.48
838.522	481.44
838.707	428.2
838.891	98.47
839.076	327.85
839.261	403.62
839.445	8.36
839.63	61.61
839.815	630.95
839.999	157.86
840.184	-51.03
840.368	-71.51
840.553	432.29
840.737	493.73
840.922	-141.14
841.106	-28.5
841.291	-112.47
841.475	223.4
841.66	-46.93
841.844	-3.93
842.029	893.09
842.213	-38.74
842.397	-34.64
842.582	-206.67
842.766	501.92
842.951	448.68
843.135	-65.36
843.319	-85.84
843.504	231.59
843.688	389.28
843.872	-151.38
844.056	-159.57
844.241	305.32
844.425	112.81
844.609	114.86
844.793	-223.06
844.977	428.2
845.161	323.75
845.346	-155.47
845.53	-65.36
845.714	196.78
845.898	645.28
846.082	-190.29
846.266	-110.42
846.45	131.24
846.634	336.04
846.818	-128.85
847.002	2.22
847.186	385.19
847.37	34.99
847.554	-36.69
847.738	28.84
847.922	309.41
848.106	325.8
848.29	-98.13
848.473	-85.84
848.657	467.11
848.841	161.96
849.025	-22.36
849.209	-251.73
849.392	333.99
849.576	108.71
849.76	-304.98
849.944	112.81
850.127	583.84
850.311	-63.32
850.495	-214.87
850.678	-149.33
850.862	471.2
851.046	596.13
851.229	227.5
851.413	-175.95
851.596	178.34
851.78	186.54
851.964	-8.02
852.147	30.89
852.331	942.24
852.514	440.48
852.698	4.27
852.881	-149.33
853.065	424.1
853.248	184.49
853.431	116.9
853.615	135.34
853.798	776.35
853.982	276.65
854.165	106.67
854.348	4.27
854.532	59.56
854.715	77.99
854.898	-30.55
855.081	-22.36
855.265	557.22
855.448	608.42
855.631	-65.36
855.814	73.9
855.997	456.87
856.181	180.39
856.364	18.6
856.547	-206.67
856.73	331.94
856.913	270.5
857.096	-104.28
857.279	-5.97
857.462	88.23
857.645	499.88
857.828	82.09
858.011	59.56
858.194	-1.88
858.377	467.11
858.56	-141.14
858.743	32.94
858.926	71.85
859.109	342.18
859.292	-32.6
859.475	-106.32
859.658	458.92
859.841	454.82
860.023	-118.61
860.206	-67.41
860.389	276.65
860.572	483.49
860.755	16.55
860.937	0.17
861.12	290.98
861.303	268.45
861.486	-30.55
861.668	-20.31
861.851	458.92
862.034	301.22
862.216	80.04
862.399	-157.52
862.581	303.27
862.764	546.98
862.947	-14.17
863.129	-143.19
863.312	-14.17
863.494	606.37
863.677	360.61
863.859	-178
864.042	391.33
864.224	612.51
864.406	80.04
864.589	-198.48
864.771	358.57
864.954	-36.69
865.136	-71.51
865.318	-192.34
865.501	450.72
865.683	-106.32
865.865	-10.07
866.048	-44.88
866.23	274.6
866.412	329.89
866.594	-149.33
866.777	61.61
866.959	422.05
867.141	80.04
867.323	168.1
867.505	88.23
867.687	215.21
867.869	272.55
868.052	2.22
868.234	-173.91
868.416	219.3
868.598	284.84
868.78	-1.88
868.962	-67.41
869.144	374.95
869.326	450.72
869.508	-120.66
869.69	-165.71
869.872	92.33
870.054	497.83
870.236	-223.06
870.417	-34.64
870.599	125.1
870.781	655.52
870.963	131.24
871.145	-128.85
871.327	-34.64
871.508	477.35
871.69	-163.67
871.872	-96.08
872.054	264.36
872.235	370.85
872.417	139.43
872.599	-83.8
872.78	546.98
872.962	311.46
873.144	-190.29
873.325	-36.69
873.507	606.37
873.689	317.61
873.87	-257.87
874.052	145.58
874.233	166.06
874.415	532.64
874.596	39.08
874.778	-161.62
874.959	313.51
875.141	469.16
875.322	-10.07
875.503	-83.8
875.685	358.57
875.866	-118.61
876.048	-155.47
876.229	-128.85
876.41	215.21
876.592	256.17
876.773	-22.36
876.954	-210.77
877.136	546.98
877.317	73.9
877.498	-221.01
877.679	2.22
877.86	377
878.042	166.06
878.223	-79.7
878.404	178.34
878.585	295.08
878.766	723.1
878.947	151.72
879.128	116.9
879.309	440.48
879.49	399.52
879.672	53.42
879.853	-1.88
880.034	30.89
880.215	153.77
880.396	67.75
880.576	-69.46
880.757	55.47
880.938	577.7
881.119	-149.33
881.3	-178
881.481	92.33
881.662	956.57
881.843	-139.09
882.023	-89.94
882.204	260.26
882.385	268.45
882.566	-34.64
882.747	-116.56
882.927	123.05
883.108	213.16
883.289	-73.56
883.469	190.63
883.65	51.37
883.831	170.15
884.011	159.91
884.192	-42.84
884.373	499.88
884.553	262.31
884.734	51.37
884.914	247.97
885.095	985.24
885.275	581.79
885.456	153.77
885.636	-100.18
885.817	90.28
885.997	188.58
886.178	-165.71
886.358	104.62
886.538	219.3
886.719	1134.75
886.899	-130.9
887.08	16.55
887.26	420
887.44	71.85
887.621	-173.91
887.801	145.58
887.981	827.55
888.161	415.91
888.342	57.51
888.522	-51.03
888.702	381.09
888.882	493.73
889.062	149.67
889.242	-212.82
889.423	622.75
889.603	379.04
889.783	10.41
889.963	-108.37
890.143	422.05
890.323	493.73
890.503	-67.41
890.683	65.71
890.863	290.98
891.043	309.41
891.223	73.9
891.403	174.25
891.583	182.44
891.763	290.98
891.943	22.7
892.122	-139.09
892.302	264.36
892.482	112.81
892.662	14.51
892.842	4.27
893.022	325.8
893.201	127.14
893.381	186.54
893.561	-65.36
893.741	395.43
893.92	331.94
894.1	141.48
894.28	73.9
894.459	420
894.639	288.93
894.819	-10.07
894.998	39.08
895.178	301.22
895.357	372.9
895.537	26.79
895.716	-145.24
895.896	145.58
896.075	471.2
896.255	-28.5
896.434	-272.21
896.614	444.58
896.793	532.64
896.973	75.95
897.152	59.56
897.331	282.79
897.511	448.68
897.69	-130.9
897.87	47.27
898.049	362.66
898.228	223.4
898.407	180.39
898.587	116.9
898.766	43.18
898.945	501.92
899.124	309.41
899.304	100.52
899.483	387.24
899.662	694.43
899.841	-38.74
900.02	-83.8
900.199	514.21
900.378	309.41
900.557	-59.22
900.737	-55.12
900.916	379.04
901.095	575.65
901.274	180.39
901.453	16.55
901.632	57.51
901.811	59.56
901.989	-59.22
902.168	-16.21
902.347	487.59
902.526	192.68
902.705	20.65
902.884	102.57
903.063	571.55
903.242	579.75
903.42	-94.04
903.599	151.72
903.778	522.4
903.957	540.83
904.135	186.54
904.314	67.75
904.493	270.5
904.672	395.43
904.85	-57.17
905.029	12.46
905.207	348.33
905.386	907.42
905.565	-42.84
905.743	-22.36
905.922	32.94
906.1	604.32
906.279	-114.52
906.457	-75.6
906.636	200.87
906.814	196.78
906.993	-14.17
907.171	-59.22
907.35	460.96
907.528	503.97
907.707	247.97
907.885	-100.18
908.063	655.52
908.242	73.9
908.42	-20.31
908.598	-186.19
908.777	475.3
908.955	143.53
909.133	82.09
909.311	-71.51
909.49	182.44
909.668	276.65
909.846	84.14
910.024	-155.47
910.202	317.61
910.38	256.17
910.559	-61.27
910.737	-102.23
910.915	403.62
911.093	250.02
911.271	75.95
911.449	309.41
911.627	372.9
911.805	751.78
911.983	20.65
912.161	-26.45
912.339	448.68
912.517	618.66
912.695	153.77
912.872	82.09
913.05	121
913.228	352.42
913.406	49.32
913.584	-104.28
913.762	393.38
913.939	80.04
914.117	-59.22
914.295	-71.51
914.473	360.61
914.65	293.03
914.828	73.9
915.006	-139.09
915.184	63.66
915.361	377
915.539	71.85
915.716	151.72
915.894	344.23
916.072	450.72
916.249	198.82
916.427	215.21
916.604	14.51
916.782	352.42
916.959	-100.18
917.137	12.46
917.314	321.7
917.492	327.85
917.669	116.9
917.847	133.29
918.024	370.85
918.201	153.77
918.379	129.19
918.556	100.52
918.733	428.2
918.911	229.54
919.088	161.96
919.265	14.51
919.442	348.33
919.62	266.41
919.797	-106.32
919.974	-75.6
920.151	317.61
920.328	366.76
920.506	39.08
920.683	282.79
920.86	116.9
921.037	116.9
921.214	98.47
921.391	-65.36
921.568	393.38
921.745	49.32
921.922	57.51
922.099	-73.56
922.276	546.98
922.453	288.93
922.63	-98.13
922.807	346.28
922.984	305.32
923.161	123.05
923.338	59.56
923.514	-24.4
923.691	194.73
923.868	377
924.045	4.27
924.222	-32.6
924.399	329.89
924.575	467.11
924.752	61.61
924.929	112.81
925.105	395.43
925.282	170.15
925.459	-1.88
925.635	71.85
925.812	295.08
925.989	155.82
926.165	80.04
926.342	-108.37
926.518	4.27
926.695	254.12
926.871	-10.07
927.048	-114.52
927.224	432.29
927.401	63.66
927.577	155.82
927.754	-46.93
927.93	526.5
928.107	336.04
928.283	-85.84
928.459	180.39
928.636	368.81
928.812	178.34
928.988	-28.5
929.165	-112.47
929.341	219.3
929.517	301.22
929.693	333.99
929.87	-167.76
930.046	333.99
930.222	145.58
930.398	-89.94
930.574	63.66
930.751	266.41
930.927	129.19
931.103	102.57
931.279	63.66
931.455	145.58
931.631	309.41
931.807	-149.33
931.983	-85.84
932.159	-51.03
932.335	247.97
932.511	82.09
932.687	-12.12
932.863	325.8
933.039	241.83
933.215	-149.33
933.391	-26.45
933.566	178.34
933.742	315.56
933.918	18.6
934.094	-188.24
934.27	254.12
934.445	338.09
934.621	129.19
934.797	-118.61
934.973	518.31
935.148	368.81
935.324	-94.04
935.5	-194.39
935.675	452.77
935.851	362.66
936.027	10.41
936.202	57.51
936.378	286.89
936.553	241.83
936.729	387.24
936.904	-22.36
937.08	-30.55
937.255	215.21
937.431	-116.56
937.606	-96.08
937.782	118.95
937.957	223.4
938.133	137.38
938.308	-18.26
938.483	235.69
938.659	16.55
938.834	77.99
939.009	-153.43
939.185	125.1
939.36	43.18
939.535	-345.94
939.71	75.95
939.886	399.52
940.061	356.52
940.236	106.67
940.411	-5.97
940.586	245.93
940.761	327.85
940.937	125.1
941.112	-91.99
941.287	229.54
941.462	223.4
941.637	-83.8
941.812	-40.79
941.987	321.7
942.162	88.23
942.337	116.9
942.512	94.38
942.687	481.44
942.862	360.61
943.037	-145.24
943.212	-395.09
943.386	18.6
943.561	225.45
943.736	92.33
943.911	315.56
944.086	243.88
944.26	297.13
944.435	-10.07
944.61	59.56
944.785	426.15
944.959	553.12
945.134	-57.17
945.309	-32.6
945.483	2.22
945.658	538.79
945.833	-257.87
946.007	-75.6
946.182	530.59
946.357	-55.12
946.531	-59.22
946.706	-104.28
946.88	-194.39
947.055	178.34
947.229	-155.47
947.404	-85.84
947.578	346.28
947.752	139.43
947.927	-182.1
948.101	-192.34
948.276	104.62
948.45	254.12
948.624	90.28
948.799	-161.62
948.973	235.69
949.147	-65.36
949.321	-20.31
949.496	-77.65
949.67	354.47
949.844	147.62
950.018	-71.51
950.193	-124.76
950.367	655.52
950.541	14.51
950.715	-8.02
950.889	71.85
951.063	-26.45
951.237	317.61
951.411	-225.11
951.585	-198.48
951.759	227.5
951.933	143.53
952.107	-71.51
952.281	104.62
952.455	499.88
952.629	278.69
952.803	-214.87
952.977	-186.19
953.151	209.06
953.325	243.88
953.499	55.47
953.672	-173.91
953.846	-51.03
954.02	121
954.194	-231.25
954.368	-169.81
954.541	252.07
954.715	-18.26
954.889	4.27
955.062	-184.15
955.236	143.53
955.41	43.18
955.583	67.75
955.757	-188.24
955.93	16.55
956.104	-112.47
956.278	-223.06
956.451	-34.64
956.625	284.84
956.798	653.47
956.972	153.77
957.145	-122.71
957.319	49.32
957.492	129.19
957.665	88.23
957.839	-139.09
958.012	274.6
958.185	39.08
958.359	-71.51
958.532	94.38
958.705	247.97
958.879	229.54
959.052	-22.36
959.225	-272.21
959.398	114.86
959.572	174.25
959.745	-190.29
959.918	-51.03
960.091	61.61
960.264	293.03
960.438	-214.87
960.611	-147.28
960.784	252.07
960.957	8.36
961.13	264.36
961.303	-173.91
961.476	88.23
961.649	348.33
961.822	-237.39
961.995	-61.27
962.168	196.78
962.341	194.73
962.514	-98.13
962.686	-104.28
962.859	211.11
963.032	182.44
963.205	-128.85
963.378	-296.78
963.551	239.78
963.723	174.25
963.896	34.99
964.069	8.36
964.242	49.32
964.414	356.52
964.587	-89.94
964.76	-46.93
964.932	176.3
965.105	121
965.278	-87.89
965.45	-165.71
965.623	153.77
965.795	200.87
965.968	-108.37
966.14	-143.19
966.313	28.84
966.485	123.05
966.658	53.42
966.83	-108.37
967.003	383.14
967.175	360.61
967.348	-112.47
967.52	-36.69
967.692	526.5
967.865	235.69
968.037	-120.66
968.209	110.76
968.382	168.1
968.554	319.65
968.726	6.31
968.898	-141.14
969.071	192.68
969.243	227.5
969.415	-69.46
969.587	-36.69
969.759	571.55
969.932	268.45
970.104	-79.7
970.276	-376.66
970.448	88.23
970.62	34.99
970.792	4.27
970.964	-44.88
971.136	557.22
971.308	266.41
971.48	-108.37
971.652	-46.93
971.824	563.36
971.996	96.43
972.168	-26.45
972.339	-69.46
972.511	352.42
972.683	92.33
972.855	110.76
973.027	-104.28
973.199	121
973.37	286.89
973.542	65.71
973.714	34.99
973.886	131.24
974.057	358.57
974.229	-120.66
974.401	-161.62
974.572	-71.51
974.744	-276.31
974.915	-278.35
975.087	-110.42
975.259	583.84
975.43	-22.36
975.602	-53.08
975.773	-198.48
975.945	-34.64
976.116	309.41
976.288	-214.87
976.459	-16.21
976.63	71.85
976.802	254.12
976.973	-55.12
977.145	-16.21
977.316	522.4
977.487	188.58
977.659	32.94
977.83	-108.37
978.001	577.7
978.172	186.54
978.344	-178
978.515	-126.8
978.686	30.89
978.857	526.5
979.028	-18.26
979.2	-161.62
979.371	360.61
979.542	180.39
979.713	-28.5
979.884	-425.81
980.055	-75.6
980.226	-1.88
980.397	-124.76
980.568	-239.44
980.739	415.91
980.91	143.53
981.081	65.71
981.252	-188.24
981.423	221.35
981.594	428.2
981.765	-173.91
981.936	30.89
982.106	176.3
982.277	436.39
982.448	-124.76
982.619	102.57
982.79	65.71
982.96	422.05
983.131	-69.46
983.302	-313.17
983.472	-26.45
983.643	219.3
983.814	-26.45
983.984	-124.76
984.155	67.75
984.326	350.37
984.496	-5.97
984.667	-96.08
984.837	-44.88
985.008	377
985.178	131.24
985.349	-18.26
985.519	125.1
985.69	10.41
985.86	-91.99
986.031	-206.67
986.201	233.64
986.371	266.41
986.542	-132.95
986.712	-300.88
986.882	305.32
987.053	268.45
987.223	-145.24
987.393	34.99
987.563	102.57
987.734	305.32
987.904	213.16
988.074	-137.04
988.244	256.17
988.414	0.17
988.585	-159.57
988.755	30.89
988.925	61.61
989.095	452.77
989.265	-135
989.435	-75.6
989.605	264.36
989.775	315.56
989.945	116.9
990.115	-190.29
990.285	149.67
990.455	194.73
990.625	-32.6
990.795	-175.95
990.965	483.49
991.134	-116.56
991.304	-143.19
991.474	-55.12
991.644	264.36
991.814	503.97
991.984	-173.91
992.153	-155.47
992.323	129.19
992.493	178.34
992.662	-366.42
992.832	-28.5
993.002	186.54
993.171	198.82
993.341	-280.4
993.511	6.31
993.68	20.65
993.85	274.6
994.019	-266.07
994.189	-233.3
994.358	209.06
994.528	61.61
994.697	-345.94
994.867	-184.15
995.036	409.76
995.206	24.75
995.375	-210.77
995.544	14.51
995.714	229.54
995.883	131.24
996.052	10.41
996.222	-378.7
996.391	624.8
996.56	209.06
996.73	-264.02
996.899	-345.94
997.068	415.91
997.237	155.82
997.406	-255.83
997.576	-255.83
997.745	227.5
997.914	219.3
998.083	-309.07
998.252	-218.96
998.421	178.34
998.59	-89.94
998.759	-227.15
998.928	-409.42
999.097	366.76
999.266	299.17
999.435	-46.93
999.604	-329.55
999.773	673.95
999.942	67.75
1000.111	-302.93
1000.28	-368.46
1000.448	-67.41
1000.617	-69.46
1000.786	6.31
1000.955	-218.96
1001.124	96.43
1001.292	710.82
1001.461	-196.43
1001.63	-210.77
1001.798	456.87
1001.967	391.33
1002.136	-311.12
1002.304	-315.22
1002.473	262.31
1002.642	139.43
1002.81	-175.95
1002.979	-239.44
1003.147	231.59
1003.316	665.76
1003.484	-225.11
1003.653	-264.02
1003.821	333.99
1003.99	121
1004.158	-163.67
1004.327	-182.1
1004.495	264.36
1004.663	-32.6
1004.832	-61.27
1005	-331.6
1005.168	254.12
1005.337	186.54
1005.505	-272.21
1005.673	-51.03
1005.842	239.78
1006.01	276.65
1006.178	-360.27
1006.346	-221.01
1006.514	229.54
1006.683	409.76
1006.851	-231.25
1007.019	-331.6
1007.187	-69.46
1007.355	-347.98
1007.523	-386.9
1007.691	-304.98
1007.859	-75.6
1008.027	448.68
1008.195	-296.78
1008.363	-354.13
1008.531	323.75
1008.699	-3.93
1008.867	-288.59
1009.035	-288.59
1009.203	307.37
1009.37	47.27
1009.538	-208.72
1009.706	178.34
1009.874	133.29
1010.042	34.99
1010.209	-298.83
1010.377	-210.77
1010.545	333.99
1010.713	121
1010.88	-331.6
1011.048	-188.24
1011.216	43.18
1011.383	336.04
1011.551	-257.87
1011.718	-364.37
1011.886	364.71
1012.054	75.95
1012.221	-278.35
1012.389	-341.84
1012.556	67.75
1012.724	546.98
1012.891	-200.53
1013.058	-390.99
1013.226	176.3
1013.393	276.65
1013.561	-427.85
1013.728	-352.08
1013.895	235.69
1014.063	243.88
1014.23	-362.32
1014.397	-300.88
1014.565	247.97
1014.732	-30.55
1014.899	-309.07
1015.066	-390.99
1015.233	153.77
1015.401	329.89
1015.568	-218.96
1015.735	-126.8
1015.902	98.47
1016.069	121
1016.236	-180.05
1016.403	-286.54
1016.57	-116.56
1016.737	409.76
1016.904	-159.57
1017.071	-321.36
1017.238	-20.31
1017.405	319.65
1017.572	-268.11
1017.739	-79.7
1017.906	235.69
1018.073	256.17
1018.24	-286.54
1018.407	-145.24
1018.573	331.94
1018.74	61.61
1018.907	-159.57
1019.074	-407.38
1019.241	325.8
1019.407	153.77
1019.574	-292.69
1019.741	-366.42
1019.907	223.4
1020.074	264.36
1020.241	-460.62
1020.407	-313.17
1020.574	321.7
1020.74	280.74
1020.907	-290.64
1021.073	-321.36
1021.24	600.23
1021.406	436.39
1021.573	-294.74
1021.739	-307.02
1021.906	260.26
1022.072	102.57
1022.239	-231.25
1022.405	-200.53
1022.571	61.61
1022.738	-100.18
1022.904	-261.97
1023.07	-202.58
1023.237	41.13
1023.403	329.89
1023.569	-223.06
1023.735	-202.58
1023.902	145.58
1024.068	225.45
1024.234	-329.55
1024.4	-233.3
1024.566	274.6
1024.732	301.22
1024.898	-247.63
1025.065	-366.42
1025.231	323.75
1025.397	-46.93
1025.563	-290.64
1025.729	-304.98
1025.895	-288.59
1026.061	-132.95
1026.227	-321.36
1026.392	-188.24
1026.558	327.85
1026.724	186.54
1026.89	-337.74
1027.056	-202.58
1027.222	202.92
1027.388	39.08
1027.553	-216.91
1027.719	-296.78
1027.885	426.15
1028.051	213.16
1028.216	-440.14
1028.382	-149.33
1028.548	360.61
1028.713	32.94
1028.879	-436.05
1029.045	-116.56
1029.21	475.3
1029.376	352.42
1029.541	-227.15
1029.707	-141.14
1029.873	260.26
1030.038	268.45
1030.204	-337.74
1030.369	-198.48
1030.534	284.84
1030.7	49.32
1030.865	-155.47
1031.031	-245.59
1031.196	178.34
1031.361	272.55
1031.527	-298.83
1031.692	-317.26
1031.857	-235.35
1032.023	260.26
1032.188	-274.26
1032.353	-223.06
1032.518	438.44
1032.684	139.43
1032.849	-362.32
1033.014	-243.54
1033.179	227.5
1033.344	346.28
1033.509	-245.59
1033.674	-173.91
1033.839	262.31
1034.004	211.11
1034.17	-302.93
1034.335	-341.84
1034.5	77.99
1034.664	18.6
1034.829	-300.88
1034.994	-145.24
1035.159	215.21
1035.324	172.2
1035.489	-218.96
1035.654	-233.3
1035.819	377
1035.984	217.26
1036.148	-243.54
1036.313	-227.15
1036.478	370.85
1036.643	153.77
1036.807	-239.44
1036.972	-255.83
1037.137	415.91
1037.301	157.86
1037.466	-388.94
1037.631	-190.29
1037.795	413.86
1037.96	192.68
1038.124	-77.65
1038.289	-239.44
1038.454	317.61
1038.618	325.8
1038.783	-218.96
1038.947	-157.52
1039.111	272.55
1039.276	129.19
1039.44	-202.58
1039.605	178.34
1039.769	71.85
1039.933	131.24
1040.098	-108.37
1040.262	-40.79
1040.426	268.45
1040.591	276.65
1040.755	-296.78
1040.919	-253.78
1041.083	338.09
1041.248	114.86
1041.412	-347.98
1041.576	-296.78
1041.74	67.75
1041.904	319.65
1042.068	-284.5
1042.232	-141.14
1042.397	329.89
1042.561	252.07
1042.725	-431.95
1042.889	22.7
1043.053	247.97
1043.217	221.35
1043.381	-77.65
1043.544	-311.12
1043.708	409.76
1043.872	-5.97
1044.036	-452.43
1044.2	-249.68
1044.364	383.14
1044.528	536.74
1044.691	3147.9
1044.855	-384.85
1045.019	385.19
1045.183	299.17
1045.346	-85.84
1045.51	-347.98
1045.674	243.88
1045.837	342.18
1046.001	-218.96
1046.165	-266.07
1046.328	686.24
1046.492	278.69
1046.655	-100.18
1046.819	-137.04
1046.983	41.13
1047.146	211.11
1047.31	-231.25
1047.473	-366.42
1047.636	200.87
1047.8	-8.02
1047.963	-243.54
1048.127	-227.15
1048.29	47.27
